# GNUBANDS: Utility for SIESTA to transform bands output into Gnuplot format
#
#                                                  Emilio Artacho, Feb. 1999
#                                                   Alberto Garcia, May 2012
#                                         Nick Papior, April 2013, July 2016
# --------------------------------------------------------------------------
# E_F               =    -6.8707
# k_min, k_max      =     0.0000    0.8154
# E_min, E_max      =   -10.0000   -2.0000
# Nbands, Nspin, Nk =     26     1   106
# Using min_band, max_band =      1    26
# Total number of bands =     26
#
#        k            E[eV]
# --------------------------------------------------------------------------

      0.101328     -9.913800  1
      0.112587     -9.745600  1
      0.123846     -9.581900  1
      0.135104     -9.422900  1
      0.146363     -9.269200  1
      0.157622     -9.121000  1
      0.168880     -8.978800  1
      0.180139     -8.843100  1
      0.191398     -8.714100  1
      0.202656     -8.592500  1
      0.213915     -8.478500  1
      0.225174     -8.372700  1
      0.236433     -8.275500  1
      0.247691     -8.187200  1
      0.258950     -8.108200  1
      0.270209     -8.039000  1
      0.281467     -7.979900  1
      0.292726     -7.931000  1
      0.303985     -7.892800  1
      0.315243     -7.865300  1
      0.326502     -7.852600  1
      0.337761     -7.853900  1
      0.344837     -7.853400  1
      0.351914     -7.851800  1
      0.358990     -7.858900  1
      0.366067     -7.871900  1
      0.373143     -7.889400  1
      0.380220     -7.911600  1
      0.387297     -7.938400  1
      0.394373     -7.969600  1
      0.401450     -8.005100  1
      0.408526     -8.044600  1
      0.415603     -8.088100  1
      0.422679     -8.135400  1
      0.429756     -8.186500  1
      0.436832     -8.241100  1
      0.443909     -8.299100  1
      0.450985     -8.360500  1
      0.458062     -8.425100  1
      0.465138     -8.492800  1
      0.472215     -8.563500  1
      0.479291     -8.637000  1
      0.486368     -8.713300  1
      0.493444     -8.792100  1
      0.500521     -8.873500  1
      0.507598     -8.957300  1
      0.514674     -9.043300  1
      0.521751     -9.131600  1
      0.528827     -9.221800  1
      0.535904     -9.314100  1
      0.542980     -9.408200  1
      0.550057     -9.504100  1
      0.557133     -9.601600  1
      0.564210     -9.700800  1
      0.571286     -9.801400  1
      0.578363     -9.903500  1


      0.000000     -9.542000  1
      0.011259     -9.463100  1
      0.022517     -9.383600  1
      0.033776     -9.303800  1
      0.045035     -9.223700  1
      0.056293     -9.143600  1
      0.067552     -9.063600  1
      0.078811     -8.983900  1
      0.090070     -8.904700  1
      0.101328     -8.826300  1
      0.112587     -8.748800  1
      0.123846     -8.672600  1
      0.135104     -8.597700  1
      0.146363     -8.524600  1
      0.157622     -8.453500  1
      0.168880     -8.384700  1
      0.180139     -8.318400  1
      0.191398     -8.254900  1
      0.202656     -8.194600  1
      0.213915     -8.137700  1
      0.225174     -8.084500  1
      0.236433     -8.035400  1
      0.247691     -7.990500  1
      0.258950     -7.950300  1
      0.270209     -7.914800  1
      0.281467     -7.884400  1
      0.292726     -7.859200  1
      0.303985     -7.842100  1
      0.315243     -7.848600  1
      0.326502     -7.848800  1
      0.337761     -7.843200  1
      0.344837     -7.844900  1
      0.351914     -7.850000  1
      0.358990     -7.849200  1
      0.366067     -7.845600  1
      0.373143     -7.850100  1
      0.380220     -7.863900  1
      0.387297     -7.879600  1
      0.394373     -7.897000  1
      0.401450     -7.916400  1
      0.408526     -7.937700  1
      0.415603     -7.961000  1
      0.422679     -7.986200  1
      0.429756     -8.013400  1
      0.436832     -8.042400  1
      0.443909     -8.073300  1
      0.450985     -8.106100  1
      0.458062     -8.140600  1
      0.465138     -8.176800  1
      0.472215     -8.214700  1
      0.479291     -8.254200  1
      0.486368     -8.295300  1
      0.493444     -8.337900  1
      0.500521     -8.382000  1
      0.507598     -8.427500  1
      0.514674     -8.474300  1
      0.521751     -8.522400  1
      0.528827     -8.571700  1
      0.535904     -8.622200  1
      0.542980     -8.673800  1
      0.550057     -8.726400  1
      0.557133     -8.780100  1
      0.564210     -8.834600  1
      0.571286     -8.890100  1
      0.578363     -8.946400  1
      0.585439     -9.003400  1
      0.592516     -9.061200  1
      0.599592     -9.119600  1
      0.606669     -9.178700  1
      0.613746     -9.238300  1
      0.620822     -9.298400  1
      0.627899     -9.359000  1
      0.634975     -9.420000  1
      0.642052     -9.481400  1
      0.649128     -9.543100  1
      0.656205     -9.605100  1
      0.661512     -9.651700  1
      0.666820     -9.698500  1
      0.672127     -9.745400  1
      0.677434     -9.792300  1
      0.682742     -9.839400  1
      0.688049     -9.886500  1
      0.693356     -9.933600  1
      0.698664     -9.980700  1


      0.000000     -6.697900  1
      0.011259     -6.771900  1
      0.022517     -6.843600  1
      0.033776     -6.913100  1
      0.045035     -6.980300  1
      0.056293     -7.045100  1
      0.067552     -7.107600  1
      0.078811     -7.167600  1
      0.090070     -7.225300  1
      0.101328     -7.280500  1
      0.112587     -7.333300  1
      0.123846     -7.383600  1
      0.135104     -7.431500  1
      0.146363     -7.476800  1
      0.157622     -7.519600  1
      0.168880     -7.559800  1
      0.180139     -7.597600  1
      0.191398     -7.632800  1
      0.202656     -7.665400  1
      0.213915     -7.695400  1
      0.225174     -7.722800  1
      0.236433     -7.747700  1
      0.247691     -7.770000  1
      0.258950     -7.789600  1
      0.270209     -7.806700  1
      0.281467     -7.821100  1
      0.292726     -7.832900  1
      0.303985     -7.839400  1
      0.315243     -7.825200  1
      0.326502     -7.816600  1
      0.337761     -7.813800  1
      0.344837     -7.815400  1
      0.351914     -7.820300  1
      0.358990     -7.828000  1
      0.366067     -7.838000  1
      0.373143     -7.840900  1
      0.380220     -7.835200  1
      0.387297     -7.828500  1
      0.394373     -7.820700  1
      0.401450     -7.811900  1
      0.408526     -7.802100  1
      0.415603     -7.791200  1
      0.422679     -7.779300  1
      0.429756     -7.766400  1
      0.436832     -7.752400  1
      0.443909     -7.737400  1
      0.450985     -7.721400  1
      0.458062     -7.704400  1
      0.465138     -7.686400  1
      0.472215     -7.667300  1
      0.479291     -7.647200  1
      0.486368     -7.626100  1
      0.493444     -7.604000  1
      0.500521     -7.580900  1
      0.507598     -7.556700  1
      0.514674     -7.531600  1
      0.521751     -7.505400  1
      0.528827     -7.478300  1
      0.535904     -7.450200  1
      0.542980     -7.421100  1
      0.550057     -7.390900  1
      0.557133     -7.359900  1
      0.564210     -7.327800  1
      0.571286     -7.294700  1
      0.578363     -7.260700  1
      0.585439     -7.225700  1
      0.592516     -7.189800  1
      0.599592     -7.152900  1
      0.606669     -7.115000  1
      0.613746     -7.076200  1
      0.620822     -7.036500  1
      0.627899     -6.995800  1
      0.634975     -6.954200  1
      0.642052     -6.911600  1
      0.649128     -6.868200  1
      0.656205     -6.823800  1
      0.661512     -6.790000  1
      0.666820     -6.755600  1
      0.672127     -6.720700  1
      0.677434     -6.685400  1
      0.682742     -6.649500  1
      0.688049     -6.613200  1
      0.693356     -6.576400  1
      0.698664     -6.539000  1
      0.703971     -6.501200  1
      0.709279     -6.463000  1
      0.714586     -6.424200  1
      0.719893     -6.385000  1
      0.725201     -6.345400  1
      0.730508     -6.305200  1
      0.735816     -6.264700  1
      0.741123     -6.223700  1
      0.746430     -6.182200  1
      0.751738     -6.140300  1
      0.757045     -6.098000  1
      0.762353     -6.055200  1
      0.767660     -6.012000  1
      0.772967     -5.968500  1
      0.778275     -5.924500  1
      0.783582     -5.880100  1
      0.788890     -5.835300  1
      0.794197     -5.790100  1
      0.799504     -5.744600  1
      0.804812     -5.698600  1
      0.810119     -5.652400  1
      0.815427     -5.605700  1


